Time (s),Channel 1 (V)
-0.0002395833333333347,-0.304569363261536
-0.0002370833333333339,-0.3012642377141235
-0.0002345833333333332,-0.2982896247214507
-0.0002320833333333341,-0.2949844991740397
-0.0002295833333333334,-0.2920098861813685
-0.0002270833333333343,-0.2883742480792147
-0.0002245833333333336,-0.2860606601960259
-0.0002220833333333345,-0.2827555346486149
-0.0002195833333333338,-0.2797809216559422
-0.000217083333333333,-0.2764757961085283
-0.000214583333333334,-0.2735011831158584
-0.0002120833333333332,-0.2701960575684446
-0.0002095833333333342,-0.2672214445757747
-0.0002070833333333334,-0.2652383692473271
-0.0002045833333333344,-0.2619332436999147
-0.0002020833333333336,-0.2579670930430196
-0.0001995833333333346,-0.2543314549408676
-0.0001970833333333338,-0.2516873545029359
-0.0001945833333333331,-0.2480517164007811
-0.000192083333333334,-0.2457381285175934
-0.0001895833333333333,-0.242763515524921
-0.0001870833333333342,-0.2401194150869921
-0.0001845833333333335,-0.2361532644300971
-0.0001820833333333344,-0.2321871137732039
-0.0001795833333333337,-0.2292125007805309
-0.0001770833333333346,-0.2265684003426021
-0.0001745833333333339,-0.2239242999046709
-0.0001720833333333331,-0.2209496869119979
-0.0001695833333333341,-0.2173140488098458
-0.0001670833333333333,-0.2143394358171746
-0.0001645833333333343,-0.2107037977150208
-0.0001620833333333335,-0.2070681596128671
-0.0001595833333333345,-0.2047545717296794
-0.0001570833333333337,-0.2021104712917483
-0.0001545833333333347,-0.1991358582990784
-0.0001520833333333339,-0.1951697076421821
-0.0001495833333333332,-0.1915340695400269
-0.0001470833333333341,-0.188559456547357
-0.0001445833333333334,-0.1855848435546858
-0.0001420833333333343,-0.1829407431167558
-0.0001395833333333336,-0.1802966426788258
-0.0001370833333333345,-0.1769915171314148
-0.0001345833333333338,-0.1730253664745183
-0.000132083333333333,-0.1693897283723632
-0.000129583333333334,-0.1664151153796933
-0.0001270833333333332,-0.1634405023870207
-0.0001245833333333342,-0.1604658893943507
-0.0001220833333333334,-0.1571607638469383
-0.0001195833333333344,-0.1538556382995257
-0.0001170833333333336,-0.1505505127521132
-0.0001145833333333346,-0.1472453872047022
-0.0001120833333333338,-0.143609749102547
-0.0001095833333333331,-0.1422876988835802
-0.000107083333333334,-0.138321548226687
-0.0001045833333333333,-0.1353469352340142
-0.0001020833333333342,-0.1320418096866032
-9.958333333333347e-05,-0.1280756590297082
-9.708333333333444e-05,-0.1251010460370383
-9.458333333333367e-05,-0.1224569455991069
-9.208333333333464e-05,-0.1191518200516959
-8.958333333333388e-05,-0.1165077196137644
-8.708333333333311e-05,-0.1122110564021266
-8.458333333333408e-05,-0.1089059308547156
-8.208333333333331e-05,-0.1052702927525619
-7.958333333333428e-05,-0.1019651672051494
-7.708333333333352e-05,-0.09932106676721938
-7.458333333333449e-05,-0.09700747888403169
-7.208333333333372e-05,-0.09370235333661811
-6.958333333333469e-05,-0.09039722778920711
-6.708333333333392e-05,-0.0864310771323106
-6.458333333333316e-05,-0.08312595158489661
-6.208333333333413e-05,-0.07982082603748558
-5.958333333333336e-05,-0.07684621304481434
-5.708333333333433e-05,-0.07453262516162559
-5.458333333333357e-05,-0.07089698705947184
-5.208333333333454e-05,-0.06693083640257863
-4.958333333333377e-05,-0.06395622340990556
-4.708333333333301e-05,-0.0606510978624917
-4.458333333333397e-05,-0.0576764848698218
-4.208333333333321e-05,-0.05470187187714905
-3.958333333333418e-05,-0.05139674632973804
-3.708333333333341e-05,-0.04842213333706679
-3.458333333333438e-05,-0.04478649523491304
-3.208333333333362e-05,-0.04181188224224178
-2.958333333333459e-05,-0.03751521903060748
-2.708333333333382e-05,-0.03487111859267551
-2.458333333333305e-05,-0.03189650560000306
-2.208333333333402e-05,-0.02925240516207426
-1.958333333333326e-05,-0.025616767059919
-1.708333333333423e-05,-0.02231164151250799
-1.458333333333346e-05,-0.01867600341035424
-1.208333333333443e-05,-0.01537087786294173
-9.583333333333666e-06,-0.01305728997975298
-7.083333333334635e-06,-0.009752164432341972
-4.583333333333869e-06,-0.005786013775445463
-2.083333333333104e-06,-0.003472425892254906
4.166666666659269e-07,0.0004937247646382976
2.916666666666692e-06,0.004129362866792054
5.416666666665723e-06,0.006442950749980808
7.916666666666489e-06,0.009417563742652063
1.041666666666552e-05,0.01305320184480417
1.291666666666628e-05,0.01602781483747708
1.541666666666532e-05,0.02032447804911138
1.791666666666608e-05,0.02362960359652584
2.041666666666685e-05,0.02627370403445705
2.291666666666588e-05,0.02891780447238585
2.541666666666664e-05,0.03255344257453961
2.791666666666567e-05,0.03519754301246961
3.041666666666644e-05,0.03850266855988212
3.291666666666547e-05,0.04246881921677532
3.541666666666624e-05,0.04544343220944837
3.7916666666667e-05,0.04907907031160319
4.041666666666603e-05,0.05139265819479089
4.29166666666668e-05,0.05469778374220505
4.541666666666583e-05,0.05833342184435715
4.791666666666659e-05,0.0619690599465109
5.041666666666562e-05,0.06494367293918216
5.291666666666639e-05,0.06857931104133591
5.541666666666542e-05,0.07122341147926471
5.791666666666619e-05,0.07419802447193719
6.041666666666695e-05,0.07750315001935133
6.291666666666598e-05,0.08113878812150344
6.541666666666675e-05,0.08444391366891746
6.791666666666578e-05,0.08774903921632846
7.041666666666654e-05,0.09138467731848221
7.291666666666557e-05,0.09303724009218847
7.541666666666634e-05,0.09667287819434223
7.791666666666537e-05,0.1003085162964943
8.041666666666614e-05,0.1036136418439085
8.29166666666669e-05,0.1072492799460637
8.541666666666593e-05,0.1105544054934748
8.79166666666667e-05,0.113529018486146
9.041666666666573e-05,0.1158426063693347
9.291666666666649e-05,0.1198087570262298
9.541666666666553e-05,0.1231138825736408
9.791666666666629e-05,0.1257579830115723
0.0001004166666666653,0.1300546462232066
0.0001029166666666661,0.133359771770621
0.0001054166666666669,0.1360038722085524
0.0001079166666666659,0.1389784852012223
0.0001104166666666666,0.1422836107486348
0.0001129166666666657,0.145258223741306
0.0001154166666666664,0.1488938618434598
0.0001179166666666655,0.1521989873908708
0.0001204166666666662,0.1555041129382848
0.0001229166666666653,0.1581482133762136
0.000125416666666666,0.1611228263688861
0.0001279166666666668,0.1644279519163002
0.0001304166666666658,0.1680635900184523
0.0001329166666666666,0.1713687155658648
0.0001354166666666656,0.1746738411132774
0.0001379166666666664,0.1773179415512074
0.0001404166666666654,0.1799620419891362
0.0001429166666666662,0.1832671675365499
0.000145416666666667,0.1865722930839642
0.000147916666666666,0.1905384437408574
0.0001504166666666668,0.1941740818430123
0.0001529166666666658,0.1968181822809411
0.0001554166666666666,0.1994622827188711
0.0001579166666666656,0.2024368957115424
0.0001604166666666663,0.2054115087042137
0.0001629166666666654,0.2090471468063657
0.0001654166666666661,0.2126827849085212
0.0001679166666666669,0.215987910455935
0.0001704166666666659,0.2189625234486049
0.0001729166666666667,0.2219371364412774
0.0001754166666666657,0.2245812368792062
0.0001779166666666665,0.22821687498136
0.0001804166666666655,0.2315220005287709
0.0001829166666666663,0.2344966135214437
0.0001854166666666653,0.2381322516235958
0.0001879166666666661,0.2411068646162687
0.0001904166666666669,0.2424289148352357
0.0001929166666666659,0.24672557804687
0.0001954166666666667,0.2503612161490237
0.0001979166666666657,0.2530053165869537
0.0002004166666666665,0.25730197979859
0.0002029166666666655,0.2599460802365188
0.0002054166666666662,0.2619291555649675
0.0002079166666666653,0.2655647936671196
0.000210416666666666,0.26787838155031
0.0002129166666666668,0.2718445322072064
0.0002154166666666658,0.2748191451998763
0.0002179166666666666,0.2787852958567713
0.0002204166666666656,0.2814293962947013
0.0002229166666666664,0.2844040092873726
0.0002254166666666654,0.2870481097253014
0.0002279166666666662,0.2900227227179739
0.000230416666666667,0.2936583608201289
0.000232916666666666,0.2966329738127989
0.0002354166666666668,0.2999380993602123
0.0002379166666666658,0.3019211746886589
0.0002404166666666666,0.3052263002360713
0.0002429166666666656,0.3088619383382251
0.0002454166666666664,0.3121670638856376
0.0002479166666666654,0.3154721894330486
0.0002504166666666661,0.3184468024257214
0.0002529166666666669,0.3214214154183937
0.0002554166666666659,0.3237350033015814
0.0002579166666666667,0.3267096162942542
0.0002604166666666657,0.3300147418416651
0.0002629166666666665,0.3329893548343364
0.0002654166666666655,0.3359639678270063
0.0002679166666666663,0.3399301184839026
0.0002704166666666653,0.3422437063670904
0.0002729166666666661,0.3452183193597627
0.0002754166666666669,0.348192932352435
0.0002779166666666659,0.3505065202356227
0.0002804166666666667,0.3541421583377765
0.0002829166666666657,0.3581083089946714
0.0002854166666666665,0.361413434542084
0.0002879166666666655,0.3633965098705306
0.0002904166666666663,0.3663711228632027
0.0002929166666666653,0.3686847107463904
0.0002954166666666661,0.371989836293804
0.0002979166666666668,0.3749644492864767
0.0003004166666666658,0.3782695748338877
0.0003029166666666666,0.3815747003813003
0.0003054166666666656,0.3832272631550065
0.0003079166666666664,0.386532388702419
0.0003104166666666654,0.3901680268045711
0.0003129166666666662,0.3928121272425028
0.000315416666666667,0.3957867402351757
0.000317916666666666,0.3994223783373278
0.0003204166666666668,0.4020664787752586
0.0003229166666666658,0.4040495541037053
0.0003254166666666666,0.4070241670963766
0.0003279166666666656,0.410329292643789
0.0003304166666666664,0.4136344181912016
0.0003329166666666654,0.4169395437386126
0.0003354166666666662,0.4199141567312853
0.0003379166666666669,0.4222277446144753
0.000340416666666666,0.4248718450524041
0.0003429166666666667,0.4275159454903354
0.0003454166666666657,0.4304905584830053
0.0003479166666666665,0.4337956840304178
0.0003504166666666655,0.4367702970230878
0.0003529166666666663,0.4397449100157603
0.0003554166666666653,0.441727985344207
0.0003579166666666661,0.4453636234463616
0.0003604166666666669,0.4483382364390339
0.0003629166666666659,0.4506518243222216
0.0003654166666666667,0.4542874624243754
0.0003679166666666657,0.4572620754170466
0.0003704166666666665,0.4595756633002354
0.0003729166666666655,0.461558738628682
0.0003754166666666663,0.4642028390666129
0.0003779166666666653,0.467838477168765
0.0003804166666666661,0.4708130901614379
0.0003829166666666668,0.4734571905993692
0.0003854166666666659,0.4764318035920392
0.0003879166666666666,0.4784148789204867
0.0003904166666666656,0.4813894919131579
0.0003929166666666664,0.4837030797963467
0.0003954166666666654,0.4866776927890166
0.0003979166666666662,0.4903133308911717
0.000400416666666667,0.4929574313291025
0.000402916666666666,0.4946099941028079
0.0004054166666666668,0.4975846070954807
0.0004079166666666658,0.5008897326428916
0.0004104166666666666,0.5032033205260804
0.0004129166666666656,0.5065084460734929
0.0004154166666666664,0.5088220339566817
0.0004179166666666654,0.5111356218398694
0.0004204166666666662,0.5134492097230592
0.0004229166666666669,0.5160933101609907
0.000425416666666666,0.5193984357084017
0.0004279166666666667,0.522042536146333
0.0004304166666666658,0.525017149139003
0.0004329166666666665,0.5276612495769329
0.0004354166666666655,0.5306358625696028
0.0004379166666666663,0.5322884253433104
0.0004404166666666653,0.5352630383359803
0.0004429166666666661,0.5372461136644292
0.0004454166666666669,0.5398902141023609
0.0004479166666666659,0.543525852204513
0.0004504166666666667,0.5461699526424429
0.0004529166666666657,0.5481530279708905
0.0004554166666666665,0.5507971284088204
0.0004579166666666655,0.5537717414014904
0.0004604166666666663,0.5560853292846805
0.0004629166666666653,0.5583989171678683
0.0004654166666666661,0.562034555270023
0.0004679166666666668,0.5646786557079536
0.0004704166666666659,0.566000705926918
0.0004729166666666666,0.568644806364848
0.0004754166666666657,0.5716194193575193
0.0004779166666666664,0.5742635197954493
0.0004804166666666655,0.5772381327881192
0.0004829166666666662,0.5802127457807917
0.000485416666666667,0.5818653085544989
0.000487916666666666,0.5838483838829456
0.0004904166666666668,0.5864924843208769
0.0004929166666666658,0.5894670973135469
0.0004954166666666666,0.5921111977514768
0.0004979166666666656,0.5944247856346656
0.0005004166666666664,0.5973993986273368
0.0005029166666666654,0.6000434990652656
0.0005054166666666662,0.6016960618389731
0.0005079166666666669,0.6040096497221631
0.000510416666666666,0.6066537501600918
0.0005129166666666667,0.6092978505980231
0.0005154166666666658,0.6119419510359518
0.0005179166666666665,0.6145860514738819
0.0005204166666666656,0.6162386142475873
0.0005229166666666663,0.6188827146855181
0.0005254166666666654,0.6211963025687058
0.0005279166666666661,0.6241709155613782
0.0005304166666666669,0.6258234783350857
0.0005329166666666659,0.6287980913277557
0.0005354166666666667,0.6311116792109444
0.0005379166666666657,0.6327642419846506
0.0005404166666666665,0.6354083424225806
0.0005429166666666655,0.6377219303057684
0.0005454166666666663,0.6403660307436994
0.0005479166666666653,0.6433406437363693
0.0005504166666666661,0.6456542316195594
0.0005529166666666668,0.6469762818385256
0.0005554166666666659,0.6496203822764545
0.0005579166666666666,0.6519339701596432
0.0005604166666666657,0.654247558042832
0.0005629166666666664,0.6565611459260207
0.0005654166666666655,0.6588747338092085
0.0005679166666666662,0.6615188342471394
0.000570416666666667,0.6631713970208469
0.000572916666666666,0.6658154974587757
0.0005754166666666668,0.667137547677742
0.0005779166666666658,0.6701121606704119
0.0005804166666666666,0.6720952359988595
0.0005829166666666656,0.6744088238820483
0.0005854166666666664,0.6770529243199782
0.0005879166666666654,0.6783749745389427
0.0005904166666666662,0.6810190749768732
0.0005929166666666669,0.6836631754148041
0.000595416666666666,0.6856462507432507
0.0005979166666666667,0.6879598386264407
0.0006004166666666658,0.6906039390643695
0.0006029166666666665,0.6915954767285932
0.0006054166666666656,0.693909064611781
0.0006079166666666663,0.696553165049712
0.0006104166666666654,0.6985362403781586
0.0006129166666666661,0.7008498282613482
0.0006154166666666669,0.7028329035897968
0.0006179166666666659,0.7051464914729845
0.0006204166666666667,0.7067990542466908
0.0006229166666666657,0.7087821295751383
0.0006254166666666665,0.7107652049035857
0.0006279166666666655,0.7134093053415146
0.0006304166666666663,0.7157228932247045
0.0006329166666666653,0.71737545599841
0.0006354166666666661,0.7196890438815995
0.0006379166666666668,0.7213416066553067
0.0006404166666666659,0.7233246819837533
0.0006429166666666666,0.725638269866942
0.0006454166666666657,0.7269603200859071
0.0006479166666666664,0.729604420523837
0.0006504166666666655,0.7315874958522837
0.0006529166666666662,0.7329095460712496
0.000655416666666667,0.7352231339544391
0.000657916666666666,0.7368756967281446
0.0006604166666666668,0.7395197971660754
0.0006629166666666658,0.7415028724945221
0.0006654166666666666,0.7438164603777109
0.0006679166666666656,0.7457995357061583
0.0006704166666666664,0.7467910733703821
0.0006729166666666654,0.7487741486988287
0.0006754166666666662,0.7510877365820183
0.0006779166666666669,0.7530708119104668
0.000680416666666666,0.7550538872389133
0.0006829166666666667,0.7567064500126205
0.0006854166666666658,0.7586895253410672
0.0006879166666666665,0.7600115755600321
0.0006904166666666656,0.7623251634432209
0.0006929166666666663,0.7636472136621859
0.0006954166666666654,0.7659608015453736
0.0006979166666666661,0.7682743894285634
0.0007004166666666669,0.7692659270927878
0.0007029166666666659,0.7709184898664934
0.0007054166666666667,0.7732320777496822
0.0007079166666666657,0.7755456656328709
0.0007104166666666665,0.7771982284065772
0.0007129166666666655,0.7795118162897648
0.0007154166666666663,0.7805033539539896
0.0007179166666666653,0.7824864292824363
0.0007204166666666661,0.7841389920561433
0.0007229166666666668,0.7857915548298502
0.0007254166666666659,0.7871136050488147
0.0007279166666666666,0.7894271929320034
0.0007304166666666657,0.7910797557057097
0.0007329166666666664,0.7927323184794159
0.0007354166666666655,0.7943848812531213
0.0007379166666666662,0.7960374440268284
0.000740416666666667,0.7976900068005355
0.000742916666666666,0.7993425695742409
0.0007454166666666668,0.8009951323479479
0.0007479166666666658,0.8026476951216535
0.0007504166666666666,0.8036392327858772
0.0007529166666666656,0.8056223081143247
0.0007554166666666664,0.8079358959975135
0.0007579166666666654,0.8095884587712189
0.0007604166666666662,0.8109105089901847
0.000762916666666667,0.8125630717638918
0.000765416666666666,0.8142156345375972
0.0007679166666666667,0.8152071722018215
0.0007704166666666658,0.816529222420786
0.0007729166666666665,0.817851272639751
0.0007754166666666656,0.8198343479681984
0.0007779166666666663,0.8221479358513872
0.0007804166666666654,0.8231394735156106
0.0007829166666666661,0.8251225488440584
0.0007854166666666669,0.8261140865082828
0.0007879166666666659,0.8274361367272473
0.0007904166666666667,0.8287581869462123
0.0007929166666666657,0.8307412622746597
0.0007954166666666665,0.8327243376031073
0.0007979166666666655,0.8340463878220716
0.0008004166666666663,0.835037925486296
0.0008029166666666653,0.8370210008147426
0.0008054166666666661,0.8383430510337085
0.0008079166666666669,0.839334588697933
0.0008104166666666659,0.8409871514716385
0.0008129166666666666,0.8419786891358623
0.0008154166666666657,0.8436312519095686
0.0008179166666666664,0.8449533021285335
0.0008204166666666655,0.8459448397927568
0.0008229166666666662,0.8479279151212048
0.0008254166666666653,0.8495804778949102
0.000827916666666666,0.8505720155591348
0.0008304166666666668,0.8515635532233593
0.0008329166666666658,0.8532161159970648
0.0008354166666666666,0.8542076536612885
0.0008379166666666656,0.8551991913255123
0.0008404166666666664,0.8565212415444773
0.0008429166666666654,0.8578432917634418
0.0008454166666666662,0.8591653419824072
0.000847916666666667,0.8604873922013728
0.000850416666666666,0.8618094424203373
0.0008529166666666668,0.8628009800845616
0.0008554166666666658,0.864123030303526
0.0008579166666666665,0.865445080522491
0.0008604166666666656,0.8670976432961973
0.0008629166666666663,0.8677586684056798
0.0008654166666666654,0.8687502060699031
0.0008679166666666661,0.8697417437341273
0.0008704166666666669,0.8717248190625752
0.0008729166666666659,0.8723858441720573
0.0008754166666666667,0.8737078943910228
0.0008779166666666657,0.8750299446099873
0.0008804166666666665,0.8763519948289523
0.0008829166666666655,0.8770130199384345
0.0008854166666666663,0.8776740450479174
0.0008879166666666653,0.8789960952668817
0.0008904166666666661,0.879987632931106
0.0008929166666666669,0.8813096831500716
0.0008954166666666659,0.8826317333690361
0.0008979166666666667,0.8836232710332598
0.0009004166666666657,0.8849453212522248
0.0009029166666666665,0.8849453212522248
0.0009054166666666655,0.8865978840259303
0.0009079166666666662,0.8872589091354136
0.0009104166666666653,0.8882504467996369
0.000912916666666666,0.8895724970186023
0.0009154166666666668,0.8912250597923087
0.0009179166666666658,0.8915555723470499
0.0009204166666666666,0.8922165974565324
0.0009229166666666656,0.8935386476754974
0.0009254166666666664,0.8941996727849798
0.0009279166666666654,0.894860697894462
0.0009304166666666662,0.8961827481134274
0.000932916666666667,0.89684377322291
0.000935416666666666,0.8971742857776511
0.0009379166666666668,0.8984963359966166
0.0009404166666666658,0.8994878736608398
0.0009429166666666666,0.9001488987703223
0.0009454166666666656,0.9011404364345461
0.0009479166666666664,0.9021319740987699
0.0009504166666666654,0.9027929992082521
0.0009529166666666661,0.9031235117629937
0.0009554166666666669,0.9037845368724764
0.0009579166666666659,0.9044455619819586
0.0009604166666666667,0.9057676122009239
0.0009629166666666657,0.9064286373104061
0.0009654166666666665,0.9074201749746299
